Wavelength,FAM EM,FAM EX,ROX (carboxy-X-rhodamine) EM,ROX (carboxy-X-rhodamine) EX,Cy3 EM,Cy3 EX,Cy5.5 EM,Cy5.5 EX
250,,,,0.2281,,,,
251,,,,0.225,,,,
252,,,,0.2234,,,,
253,,,,0.2242,,,,
254,,,,0.227,,,,
255,,,,0.2321,,,,
256,,,,0.2386,,,,
257,,,,0.2472,,,,
258,,,,0.2556,,,,
259,,,,0.2652,,,,
260,,,,0.2757,,,,
261,,,,0.2857,,,,
262,,,,0.2961,,,,
263,,,,0.3058,,,,
264,,,,0.3147,,,,
265,,,,0.3221,,,,
266,,,,0.3278,,,,
267,,,,0.331,,,,
268,,,,0.3303,,,,
269,,,,0.3258,,,,
270,,,,0.317,,,,
271,,,,0.3057,,,,
272,,,,0.2928,,,,
273,,,,0.278,,,,
274,,,,0.2632,,,,
275,,,,0.2498,,,,
276,,,,0.2366,,,,
277,,,,0.2249,,,,
278,,,,0.2151,,,,
279,,,,0.2066,,,,
280,,,,0.1987,,,,
281,,,,0.1921,,,,
282,,,,0.1861,,,,
283,,,,0.1816,,,,
284,,,,0.1777,,,,
285,,,,0.1738,,,,
286,,,,0.1706,,,,
287,,,,0.17,,,,
288,,,,0.1678,,,,
289,,,,0.1672,,,,
290,,,,0.168,,,,
291,,,,0.1694,,,,
292,,,,0.1712,,,,
293,,,,0.1743,,,,
294,,,,0.1776,,,,
295,,,,0.1813,,,,
296,,,,0.185,,,,
297,,,,0.1886,,,,
298,,,,0.1922,,,,
299,,,,0.1949,,,,
300,,0.092488803,,0.1969,,,,
301,,0.089265697,,0.1979,,,,
302,,0.086182699,,0.1988,,,,
303,,0.084361002,,0.1981,,,,
304,,0.083239898,,0.1969,,,,
305,,0.082539201,,0.1965,,,,
306,,0.082258999,,0.1938,,,,
307,,0.082679398,,0.192,,,,
308,,0.083520196,,0.1909,,,,
309,,0.084501103,,0.1898,,,,
310,,0.086462997,,0.1884,,,,
311,,0.089125603,,0.188,,,,
312,,0.091647997,,0.1865,,,,
313,,0.094730899,,0.1852,,,,
314,,0.099215202,,0.1841,,,,
315,,0.102999002,,0.1805,,,,
316,,0.106642,,0.1767,,,,
317,,0.111686997,,0.1726,,,,
318,,0.115050003,,0.1662,,,,
319,,0.117853001,,0.1589,,,,
320,,0.121357001,,0.1519,,,,
321,,0.122897997,,0.144,,,,
322,,0.123457998,,0.135,,,,
323,,0.122897997,,0.1272,,,,
324,,0.121496998,,0.1194,,,,
325,,0.119534999,,0.1108,,,,
326,,0.116311997,,0.1041,,,,
327,,0.113649003,,0.0967,,,,
328,,0.110146001,,0.0905,,,,
329,,0.104539998,,0.0848,,,,
330,,0.100195996,,0.0802,,,,
331,,0.096132301,,0.0767,,,,
332,,0.089546002,,0.0736,,,,
333,,0.084781401,,0.0692,,,,
334,,0.0801569,,0.067,,,,
335,,0.0732904,,0.065,,,,
336,,0.068806097,,0.0623,,,,
337,,0.063901298,,0.0601,,,,
338,,0.057314999,,0.0589,,,,
339,,0.053251099,,0.0571,,,,
340,,0.049327299,,0.0559,,,,
341,,0.043722,,0.0553,,,,
342,,0.0403587,,0.0558,,,,
343,,0.037275799,,0.0555,,,,
344,,0.033351999,,0.056,,,,
345,,0.030829599,,0.0566,,,,
346,,0.0284473,,0.0577,,,,
347,,0.0255045,,0.0585,,,,
348,,0.0235426,,0.06,,,,
349,,0.022001101,,0.0614,,,,
350,,0.020319499,,0.063,,,,
351,,0.0193386,,0.0638,,,,
352,,0.0182175,,0.0648,,,,
353,,0.0173767,,0.0665,,,,
354,,0.0169563,,0.0674,,,,
355,,0.0162556,,0.0684,,,,
356,,0.0155549,,0.07,,,,
357,,0.0154148,,0.0713,,,,
358,,0.0152747,,0.0733,,,,
359,,0.0151345,,0.0755,,,,
360,,0.0152747,,0.0776,,,,
361,,0.0151345,,0.0802,,,,
362,,0.0151345,,0.0835,,,,
363,,0.0155549,,0.0861,,,,
364,,0.0159753,,0.0891,,,,
365,,0.0162556,,0.0928,,,,
366,,0.016535901,,0.095,,,,
367,,0.016395699,,0.0975,,,,
368,,0.016675999,,0.0993,,,,
369,,0.017236499,,0.1004,,,,
370,,0.017516799,,0.1004,,,,
371,,0.017797099,,0.1002,,,,
372,,0.0179372,,0.0987,,,,
373,,0.0180774,,0.0964,,,,
374,,0.0182175,,0.0937,,,,
375,,0.0184978,,0.0905,,,,
376,,0.018778,,0.0868,,,,
377,,0.018778,,0.0829,,,,
378,,0.019198401,,0.0787,,,,
379,,0.0196188,,0.0746,,,,
380,,0.0196188,,0.0714,,,,
381,,0.019758999,,0.0673,,,,
382,,0.019758999,,0.0634,,,,
383,,0.019758999,,0.0608,,,,
384,,0.0201794,,0.0564,,,,
385,,0.0204596,,0.0545,,,,
386,,0.0201794,,0.0521,,,,
387,,0.0198991,,0.05,,,,
388,,0.019758999,,0.0485,,,,
389,,0.0193386,,0.0471,,,,
390,,0.0193386,,0.0458,,,,
391,,0.0193386,,0.0447,,,,
392,,0.0190583,,0.0439,,,,
393,,0.018918199,,0.0432,,,,
394,,0.0184978,,0.0427,,,,
395,,0.018357599,,0.0424,,,,
396,,0.0182175,,0.0419,,,,
397,,0.0184978,,0.0418,,,,
398,,0.018637899,,0.0412,,,,
399,,0.018637899,,0.0415,,,,
400,,0.0190583,,0.0415,,0.0019,,
401,,0.0190583,,0.0412,,0.002,,
402,,0.0193386,,0.0411,,0.0019,,
403,,0.0196188,,0.0412,,0.0019,,
404,,0.0201794,,0.0413,,0.0022,,
405,,0.0207399,,0.0418,,0.0021,,
406,,0.020880001,,0.0423,,0.0025,,
407,,0.0213004,,0.0426,,0.0021,,
408,,0.021861,,0.0427,,0.002,,
409,,0.022281401,,0.0435,,0.0024,,
410,,0.022841901,,0.0438,,0.0024,,
411,,0.0236827,,0.0443,,0.003,,
412,,0.024243301,,0.0446,,0.0024,,
413,,0.025364401,,0.0454,,0.0027,,
414,,0.0264854,,0.0456,,0.0027,,
415,,0.0274664,,0.0463,,0.0031,,
416,,0.0290078,,0.0463,,0.0031,,
417,,0.0304092,,0.0468,,0.0031,,
418,,0.031950701,,0.0471,,0.0033,,
419,,0.0340527,,0.0473,,0.0035,,
420,,0.0357343,,0.0472,,0.0037,,
421,,0.037556101,,0.0472,,0.0037,,
422,,0.040498901,,0.0477,,0.004,,
423,,0.042741001,,0.0475,,0.0044,,
424,,0.044983201,,0.047,,0.0045,,
425,,0.048486501,,0.0471,,0.0051,,
426,,0.051008999,,0.047,,0.005,,
427,,0.053671502,,0.0465,,0.0053,,
428,,0.057735398,,0.0461,,0.0057,,
429,,0.0608184,,0.0464,,0.0058,,
430,,0.064041503,,0.0461,,0.0058,,
431,,0.068385698,,0.0456,,0.006,,
432,,0.071748897,,0.0454,,0.006,,
433,,0.075112097,,0.0446,,0.0073,,
434,,0.080016799,,0.0448,,0.0079,,
435,,0.083800502,,0.0447,,0.0078,,
436,,0.087584101,,0.0444,,0.0088,,
437,,0.093469702,,0.0439,,0.0087,,
438,,0.097953998,,0.0442,,0.0095,,
439,,0.102719001,,0.0434,,0.0097,,
440,,0.110146001,,0.0435,,0.0104,,
441,,0.115891002,,0.0436,,0.0108,,
442,,0.122056998,,0.043,,0.0118,,
443,,0.131446004,,0.0428,,0.0122,,
444,,0.139014006,,0.0426,,0.0129,,
445,,0.147000998,,0.0423,,0.0136,,
446,,0.159052998,,0.0423,,0.0149,,
447,,0.168582007,,0.042,,0.015,,
448,,0.178531006,,0.0417,,0.0163,,
449,,0.192684993,,0.0415,,0.0175,,
450,,0.203474998,,0.0412,,0.0183,,
451,,0.214545995,,0.0406,,0.0186,,
452,,0.230101004,,0.0404,,0.0207,,
453,,0.241732001,,0.0403,,0.0218,,
454,,0.253363013,,0.0395,,0.0243,,
455,,0.269338995,,0.0392,,0.0252,,
456,,0.281109989,,0.039,,0.0261,,
457,,0.292741001,,0.0383,,0.0274,,
458,,0.308016002,,0.038,,0.0291,,
459,,0.318805993,,0.0378,,0.0307,,
460,,0.32931599,,0.0378,,0.0325,,
461,,0.342909008,,0.0381,,0.0341,,
462,,0.352438003,,0.0378,,0.0357,,
463,,0.361546993,,0.0375,,0.0374,,
464,,0.373878986,,0.0375,,0.0413,,
465,,0.382847995,,0.0377,,0.0432,,
466,,0.392096013,,0.0378,,0.0468,,
467,,0.404848993,,0.0381,,0.0488,,
468,,0.414797992,,0.0384,,0.0506,,
469,,0.425588995,,0.0389,,0.0543,,
470,,0.441563994,,0.0392,,0.0594,,
471,,0.454596013,,0.0402,,0.0615,,
472,,0.469029993,,0.0406,,0.0669,,
473,,0.49159199,,0.0416,,0.07,,
474,,0.510230005,,0.0424,,0.0765,,
475,,0.530969977,,0.0435,,0.0813,,
476,,0.562359989,,0.0445,,0.0864,,
477,,0.588145018,,0.046,,0.0914,,
478,,0.615471005,,0.0474,,0.0983,,
479,,0.655690014,,0.0489,,0.103,,
480,0.00976434,0.686519027,,0.0503,,0.1075,,
481,0.0106855,0.718330026,,0.0522,,0.1149,,
482,0.013449,0.763453007,,0.0538,,0.1184,,
483,0.0167729,0.79638499,,0.056,,0.1253,,
484,0.021695299,0.82861501,,0.0575,,0.1322,,
485,0.0268001,0.870095015,,0.06,,0.1367,,
486,0.033910301,0.898122013,,0.062,,0.1404,,
487,0.041749801,0.923766971,,0.0645,,0.1469,,
488,0.051047798,0.954035997,,0.0665,,0.1508,,
489,0.063627496,0.971973002,,0.0693,,0.1573,,
490,0.078667402,0.985987008,,0.0716,,0.1614,,
491,0.095801003,0.997478008,,0.0744,,0.1675,,
492,0.115698002,1,,0.077,,0.1741,,
493,0.140017003,0.997196972,,0.0795,,0.1799,,
494,0.168204993,0.984025002,,0.0824,,0.1862,,
495,0.200084001,0.967769027,,0.0851,,0.1949,,
496,0.235452995,0.94590801,,0.0875,,0.1999,,
497,0.273586005,0.907091022,,0.0902,,0.2102,,
498,0.319260001,0.873178005,,0.0929,,0.219,,
499,0.361883014,0.834921002,,0.0956,,0.2264,,
500,0.405445993,0.775785029,,0.0981,,0.2379,,
501,0.455150992,0.729120016,,0.101,,0.2606,,
502,0.508347988,0.680633008,,0.1038,,0.2755,,
503,0.558570981,0.611967027,,0.1071,,0.2861,,
504,0.609350026,0.561940014,,0.11,,0.3035,,
505,0.660878003,0.513453007,,0.1136,,0.3268,,
506,0.716261983,0.449552,,0.1171,,0.3457,,
507,0.761668026,0.40554899,,0.121,,0.3586,,
508,0.804982007,0.364069998,,0.1245,,0.3765,,
509,0.853420019,0.310817987,,0.1297,,0.3957,,
510,0.883358002,0.275364012,,0.1342,,0.4222,,
511,0.915407002,0.242432997,,0.1396,,0.4403,,
512,0.932295024,0.202074006,,0.1449,,0.4579,,
513,0.962366998,0.176148996,,0.1516,,0.4747,,0.011577814
514,0.973017991,0.153026998,,0.1581,0,0.4895,,0.011577814
515,0.983668983,0.125560999,,0.1656,0.001,0.5039,,0.011567841
516,0.995182991,0.108323999,,0.1736,0.002,0.5057,,0.011567841
517,0.994991004,0.0931895,,0.1822,0.003,0.5179,,0.011557869
518,1,0.075532503,,0.1908,0.004,0.5249,,0.011547897
519,0.992879987,0.064321697,,0.2008,0.005,0.5283,,0.013482519
520,0.98121202,0.054932699,,0.2107,0.006,0.5279,,0.013482519
521,0.975377977,0.044422701,,0.2214,0.007,0.5343,,0.013472546
522,0.954209983,0.0379765,,0.2323,0.008,0.5291,,0.013472546
523,0.935249984,0.0323711,,0.2432,0.009,0.5296,,0.013462574
524,0.923888981,0.026064999,,0.2545,0.01,0.5248,,0.013452602
525,0.904946983,0.0221413,,0.2661,0.011,0.521,,0.01734179
526,0.891802013,0.018778,,0.2773,0.012,0.5182,,0.017331818
527,0.864147007,0.0151345,,0.2887,0.013,0.5145,,0.017321846
528,0.840139985,0.0127522,,0.2997,0.014,0.5135,,0.017321846
529,0.81726402,0.0107904,,0.3103,0.015,0.5131,,0.017311873
530,0.792219996,0.00854821,,0.3201,0.0174,0.5161,,0.021191088
531,0.771628022,0.00742713,,0.3301,0.0188,0.5258,,0.021191088
532,0.745931029,0.00616592,,0.3394,0.0204,0.5251,,0.021181116
533,0.725013018,0.00476457,,0.348,0.0223,0.5333,,0.025060331
534,0.69887501,0.0040639,,0.3555,0.0246,0.5467,,0.02505036
535,0.674196005,0.00336323,,0.3629,0.0272,0.5547,,0.02505036
536,0.659475982,0.00238229,,0.3687,0.0303,0.5687,,0.025040388
537,0.638154984,0.00182175,,0.3743,0.034,0.5808,,0.025040388
538,0.620307982,0.00140135,,0.3786,0.0385,0.6004,,0.028919604
539,0.599216998,0.000841,,0.3826,0.0439,0.6184,,0.028909631
540,0.583979011,0.000701,,0.3861,0.0503,0.6378,,0.028899658
541,0.567436993,0.000561,,0.3886,0.058,0.6774,,0.028899658
542,0.551891983,0.000280269,,0.391,0.0673,0.7055,,0.030834282
543,0.535196006,0.000280269,,0.393,0.0784,0.7314,,0.034713496
544,0.523757994,1E-05,,0.3948,0.0917,0.7694,,0.034713496
545,0.507772028,1E-05,,0.3968,0.1074,0.8049,,0.034703523
546,0.497889012,1E-05,,0.399,0.1258,0.8391,,0.03469355
547,0.481788009,1E-05,,0.4016,0.1472,0.8737,,0.042461958
548,0.471060008,1E-05,,0.4052,0.1721,0.8976,,0.042461958
549,0.458355993,1E-05,,0.4097,0.2007,0.9307,,0.04245198
550,0.449968994,1E-05,,0.4153,0.2336,0.9647,,0.044386607
551,0.438742995,,,0.4226,0.2713,0.9789,,0.044386607
552,0.428667009,,,0.4313,0.314,0.9968,,0.044376634
553,0.416213006,,,0.4416,0.3608,0.9989,,0.04825585
554,0.407864988,,,0.4541,0.4117,1,,0.052135065
555,0.396003991,,,0.4685,0.466,0.9913,,0.052135065
556,0.387809992,,,0.4842,0.5229,0.9852,,0.05601428
557,0.378962994,,,0.5021,0.5819,0.9538,,0.05600431
558,0.365970999,,,0.5219,0.6415,0.932,,0.059883524
559,0.35750699,,,0.5442,0.7012,0.8952,,0.061828118
560,0.347681999,,,0.5677,0.7583,0.8451,,0.061818145
561,0.338719994,,,0.5931,0.812,0.7777,,0.06958655
562,0.32881701,,,0.6202,0.8609,0.7271,,0.06958655
563,0.319835991,,,0.6492,0.9036,0.6801,,0.073455796
564,0.308878005,,,0.6785,0.9384,0.6153,,0.073455796
565,0.300817996,,0.0351,0.7093,0.9664,0.5457,,0.07733501
566,0.290262997,,0.0364,0.7405,0.9862,0.4863,,0.08315882
567,0.282182992,,0.0414,0.7714,0.9969,0.4502,,0.08315882
568,0.272511005,,0.0499,0.8026,1,0.3955,,0.083148845
569,0.264450997,,0.0593,0.8328,0.9955,0.3482,,0.08703803
570,0.253722996,,0.0692,0.863,0.9833,0.3021,,0.09285187
571,0.245394006,,0.0827,0.8902,0.964,0.2631,,0.09285187
572,0.236797005,,0.0966,0.9159,0.9395,0.2259,,0.0928419
573,0.227469996,,0.1113,0.9392,0.9107,0.1952,,0.09673109
574,0.220579997,,0.1296,0.9598,0.8777,0.1693,,0.09672111
575,0.211177006,,0.1488,0.9765,0.8421,0.1493,,0.10060033
576,0.205323994,,0.1702,0.989,0.8047,0.132,,0.10448952
577,0.197090998,,0.1971,0.997,0.7657,0.1172,,0.11030336
578,0.189605996,,0.2221,1,0.7261,0.1002,,0.11030336
579,0.182265997,,0.2531,0.9971,0.6869,0.0878,,0.11806179
580,0.175477996,,0.2868,0.9896,0.6477,0.0717,,0.11806179
581,0.169218004,,0.3234,0.9763,0.61,0.062,,0.11806179
582,0.161617994,,0.3631,0.958,0.5738,0.0498,,0.121941
583,0.155537993,,0.4011,0.9344,0.5392,0.0428,,0.12193103
584,0.148952007,,0.4422,0.9069,0.5072,0.0356,,0.12775484
585,0.144209996,,0.487,0.8741,0.4774,0.0311,,0.12775484
586,0.138850003,,0.5293,0.8392,0.4495,0.0266,,0.13551328
587,0.132980004,,0.5698,0.8005,0.4237,0.0242,,0.13551328
588,0.127875,,0.6111,0.7593,0.3995,0.0202,,0.1393925
589,0.124465004,,0.6597,0.7173,0.3767,0.0155,,0.1452163
590,0.118807003,,0.7024,0.6744,0.3558,0.0143,,0.1452163
591,0.114435002,,0.7409,0.6302,0.3367,0.0119,,0.15297472
592,0.110835001,,0.7808,0.5859,0.3193,0.0104,,0.15686391
593,0.105691999,,0.8166,0.5432,0.3035,0.0101,,0.16268773
594,0.101834998,,0.8497,0.5005,0.289,0.0084,,0.16656694
595,0.098708503,,0.8889,0.4597,0.276,0.0071,,0.17045613
596,0.094563201,,0.9177,0.4204,0.2643,0.0065,,0.18404835
597,0.091195203,,0.936,0.3835,0.254,0.0066,,0.18793753
598,0.087827198,,0.9598,0.3483,0.2445,0.0059,,0.19764055
599,0.084718302,,0.9739,0.3153,0.2362,0.0046,,0.20152976
600,0.081868403,,0.9844,0.2845,0.2286,0.0038,,0.21124275
601,0.079277702,,0.9922,0.2564,0.2217,0.0032,,0.21901114
602,0.075391501,,0.9986,0.2307,0.2156,0.0031,,0.22872415
603,0.073578,,0.994,0.2064,0.2102,0.0028,,0.23260336
604,0.070991002,,1,0.185,0.2053,0.0025,,0.24037176
605,0.068641998,,0.9917,0.165,0.2006,0.002,,0.25008476
606,0.065771103,,0.9862,0.1469,0.1961,0.0016,,0.25979775
607,0.063422099,,0.9742,0.1305,0.1916,0.0014,,0.27339995
608,0.0613342,,0.9595,0.1163,0.1871,0.0009,,0.28116834
609,0.058463201,,0.9411,0.1029,0.1827,0.0004,,0.29477054
610,0.056636199,,0.9213,0.0916,0.1784,0.0002,,0.29864976
611,0.0552123,,0.9123,0.0812,0.1738,0.0001,,0.30641815
612,0.053371798,,0.8882,0.0722,0.169,0.0001,,0.32196495
613,0.051268499,,0.866,0.0641,0.164,0.0001,,0.32584414
614,0.049690999,,0.8409,0.0569,0.1589,0.0001,,0.33944634
615,0.047935098,,0.8256,0.0508,0.1535,0.0001,,0.34332556
616,0.0460812,,0.7976,0.0452,0.1482,0.0001,,0.35498315
617,0.045081399,,0.7793,0.0404,0.1426,0.0001,,0.36080697
618,0.043214101,,0.7554,0.0359,0.1369,0.0001,,0.36469615
619,0.040813301,,0.7281,0.0322,0.131,0.0001,,0.37440914
620,0.039494898,,0.704,0.0292,0.1251,0,,0.37439916
621,0.038688902,,0.6755,0.0261,0.1193,0.0001,,0.37828836
622,0.0368005,,0.656,0.0237,0.1136,0.0001,,0.38216758
623,0.035447501,,0.6279,0.0216,0.1079,0,,0.3821576
624,0.034881402,,0.6093,0.0194,0.1024,0.0001,,0.38214764
625,0.033518799,,0.5871,0.0178,0.0969,0,,0.38214764
626,0.032108299,,0.5676,0.0165,0.0915,0,,0.38602686
627,0.030951099,,0.5496,0.0148,0.0863,0.0001,,0.38601688
628,0.0298457,,0.5258,0.0137,0.0814,0,,0.38601688
629,0.0294964,,0.5083,0.0127,0.0767,0,,0.3879515
630,0.0271782,,0.491,0.0118,0.0722,0,,0.3879415
631,0.027364301,,0.4735,0.0108,0.0679,0,,0.3879415
632,0.0261303,,0.4572,0.0105,0.0637,0,,0.38598695
633,0.024710201,,0.4377,0.0096,0.0597,0,,0.38597697
634,0.0237334,,0.423,0.0092,0.056,0,,0.3820878
635,0.0230291,,0.4091,0.0088,0.0524,0,,0.3820778
636,0.022603,,0.3965,0.0081,0.0491,0,,0.3820778
637,0.022169299,,0.3852,0.0079,0.046,0,,0.38789165
638,0.0211407,,0.3754,0.0074,0.0431,0,0.010772244,0.38789165
639,0.020392301,,0.3637,0.0071,0.0404,0,0.010772244,0.39566007
640,0.019037399,,0.3525,0.0067,0.038,0,0.010762251,0.3995393
641,0.0188608,,0.3447,0.0067,0.0357,0,0.010752258,0.4034185
642,0.0177765,,0.3336,0.0062,0.0336,0,0.012690863,0.41702068
643,0.017697901,,0.3287,0.0063,0.0316,0,0.012690863,0.42090988
644,0.0171951,,0.32,0.0062,0.0296,0,0.01268087,0.43839127
645,0.016375599,,0.3116,0.0059,0.0279,0,0.012670877,0.4442151
646,0.0158555,,0.3042,0.0058,0.0263,0,0.016558077,0.46559563
647,0.0151071,,0.3002,0.0058,0.0248,0,0.016548084,0.47141945
648,0.0148826,,0.2937,0.0056,0.0234,0,0.024312494,0.48891082
649,0.0136985,,0.2876,0.0056,0.022,0,0.024312494,0.49667922
650,0.013781,,0.2808,0.006,0.0208,,0.028189704,0.51028144
651,0.0129731,,0.2768,,0.02,,0.03401551,0.5277728
652,0.0127236,,0.2715,,0.018,,0.03401551,0.5530326
653,0.0128733,,0.2683,,0.017,,0.043728516,0.5841261
654,0.0119521,,0.2611,,0.016,,0.043718524,0.5938391
655,0.0114186,,0.2582,,0.015,,0.059267327,0.63271105
656,0.0114838,,0.2549,,0.014,,0.06509313,0.65020245
657,0.0116143,,0.2475,,0.013,,0.06897034,0.6638046
658,0.0116796,,0.2423,,0.012,,0.08645775,0.681296
659,0.0100733,,0.2389,,0.011,,0.092293546,0.7123896
660,0.0101846,,0.2359,,0.009,,0.11366816,0.73182553
661,0.0102959,,0.2316,,0.008,,0.12144256,0.7668083
662,0.00928073,,0.2266,,0.007,,0.15254018,0.8153932
663,0.00865894,,0.2233,,0.006,,0.16614038,0.83677375
664,0.00875106,,0.2186,,0.005,,0.1797406,0.85037595
665,0.00884317,,0.2144,,0.004,,0.21473539,0.8931371
666,0.00856298,,0.2107,,0.003,,0.2283356,0.90673923
667,0.00865126,,0.2043,,0.002,,0.27304342,0.9242207
668,0.00797958,,0.2017,,0.001,,0.28859222,0.9553142
669,0.00729255,,0.1956,,0.0005,,0.33912584,0.96892637
670,0.00736547,,0.1928,,0,,0.36051044,0.9864078
671,0.0074384,,0.1857,,,,0.38772085,0.9941762
672,0.00715053,,0.1835,,,,0.45770046,1
673,0.00721962,,0.1782,,,,0.47908506,1
674,0.00688378,,0.1735,,,,0.5490547,0.99999005
675,,,0.1694,,,,0.5685007,0.99999005
676,,,0.1637,,,,0.6384803,0.9863679
677,,,0.1608,,,,0.6598549,0.97858953
678,,,0.1571,,,,0.7356703,0.9688665
679,,,0.1502,,,,0.7667679,0.947476
680,,,0.1478,,,,0.7881525,0.9299747
681,,,0.1429,,,,0.81342435,0.89691657
682,,,0.1395,,,,0.8367475,0.885249
683,,,0.1344,,,,0.87950677,0.8444225
684,,,0.1283,,,,0.912543,0.82692116
685,,,0.1246,,,,0.9475378,0.7666487
686,,,0.1213,,,,0.95918936,0.74720275
687,,,0.1174,,,,0.9727996,0.71804386
688,,,0.1143,,,,0.9941742,0.67332816
689,,,0.109,,,,0.9961128,0.60138816
690,,,0.1066,,,,1,0.5663954
691,,,0.1015,,,,0.99999,0.5450049
692,,,0.1002,,,,0.99999,0.47890863
693,,,0.0966,,,,0.99998003,0.4575181
694,,,0.0934,,,,0.99997,0.38753265
695,,,0.0901,,,,0.99413425,0.36030835
696,,,0.0863,,,,0.9863498,0.32142642
697,,,0.0828,,,,0.9649552,0.29809132
698,,,0.081,,,,0.95911944,0.2630886
699,,,0.0773,,,,0.92411464,0.24170806
700,,,0.0754,,,,0.91244304,0.22808592
701,,,0.0743,,,,0.89688426,0.1930932
702,,,0.0694,,,,0.8618894,0.18337023
703,,,0.0661,,,,0.84438205,0.15225673
704,,,0.0658,,,,0.795777,0.14253376
705,,,0.0628,,,,0.7607722,0.12503241
706,,,0.0625,,,,0.7393777,0.11335487
707,,,0.0591,,,,0.72576743,0.10752109
708,,,0.0587,,,,0.68104964,0.09196434
709,,,0.0543,,,,0.66742945,0.08613056
710,,,0.0549,,,,0.64603484,0.072508425
711,,,0.0535,,,,0.5974299,0.06473005
712,,,0.0508,,,,0.5624251,0.060840864
713,,,0.0504,,,,0.5410404,0.05499711
714,,,0.0466,,,,0.5274203,0.05110792
715,,,0.0471,,,,0.49241546,0.04331957
716,,,0.0455,,,,0.47880527,0.041374978
717,,,0.0437,,,,0.44768766,0.03358663
718,,,0.0442,,,,0.43991327,0.03358663
719,,,0.0424,,,,0.40490848,0.02968747
720,,,0.0418,,,,0.39518547,0.027732903
721,,,0.0399,,,,0.37379086,0.027732903
722,,,0.0404,,,,0.36405787,0.023833742
723,,,0.0408,,,,0.3562835,0.023833742
724,,,0.0365,,,,0.3368275,0.02382377
725,,,0.0357,,,,0.32905307,0.023813797
726,,,0.0361,,,,0.3076585,0.01992461
727,,,0.0327,,,,0.2979255,0.016025448
728,,,0.0306,,,,0.2882025,0.016025448
729,,,0.0309,,,,0.2804181,0.016015477
730,,,0.0313,,,,0.2726337,0.016005505
731,,,0.0317,,,,0.2629107,0.012116317
732,,,0.0307,,,,0.2590135,0.012106344
733,,,0.0284,,,,0.24929051,0.012106344
734,,,0.026,,,,0.24150611,0.012096372
735,,,0.0264,,,,0.23566031,0.0120864
736,,,0.0267,,,,0.23177312,0.0120864
737,,,0.027,,,,0.23176312,0.012076428
738,,,0.0273,,,,0.22204013,0.012066455
739,,,0.0276,,,,0.22203013,0.012066455
740,,,0.0266,,,,0.21813294,0.010111889
741,,,0.0209,,,,0.21424574,0.012046511
742,,,0.0227,,,,0.21423575,0.012046511
743,,,0.0214,,,,0.21033856,0.012036538
744,,,0.0217,,,,0.20644136,0.012036538
745,,,0.0219,,,,0.20644136,0.012026566
746,,,0.019,,,,0.20643137,0.012016594
747,,,0.0159,,,,0.20448276,0.012006622
748,,,0.0159,,,,0.20447278,0.012006622
749,,,0.0144,,,,0.20447278,
750,,,,,,,0.20057559,
751,,,,,,,0.20056559,
752,,,,,,,0.1966684,
753,,,,,,,0.1966684,
754,,,,,,,0.1966584,
755,,,,,,,0.1966584,
756,,,,,,,0.19276121,
757,,,,,,,0.19080262,
758,,,,,,,0.19080262,
